pressure,temperature,dewpoint,u_wind,v_wind,altitude
720.0,17.0,1.5,-9.563,-2.924,0.0
719.5,16.82,1.2,-11.535,-3.308,5.5
719.1,16.64,0.9,-13.426,-3.598,11.0
718.6,16.46,0.6,-15.358,-4.115,16.6
718.1,16.28,0.3,-17.271,-4.306,22.1
717.7,16.1,0.0,-19.212,-4.79,27.6
717.2,15.92,-0.3,-21.055,-5.25,33.1
716.7,15.74,-0.6,-23.093,-5.331,38.6
716.3,15.65,-0.8,-25.041,-5.781,44.2
715.8,15.6,-0.9,-26.893,-6.209,49.7
715.3,15.54,-0.9,-28.841,-6.659,55.2
714.9,15.49,-1.0,-29.718,-6.861,60.7
714.4,15.44,-1.0,-30.176,-7.524,66.2
713.9,15.38,-1.1,-30.758,-7.669,71.8
713.5,15.33,-1.1,-31.438,-7.838,77.3
713.0,15.27,-1.2,-31.876,-8.541,82.8
712.5,15.22,-1.2,-32.455,-8.696,88.3
712.1,15.16,-1.3,-33.035,-8.852,93.9
711.6,15.11,-1.3,-33.548,-9.62,99.4
711.3,15.06,-1.3,-34.125,-9.785,104.9
711.0,15.0,-1.4,-34.702,-9.951,109.0
710.7,14.95,-1.4,-35.192,-10.759,112.0
710.4,14.89,-1.5,-35.766,-10.935,115.0
710.1,14.85,-1.5,-36.34,-11.11,118.0
709.8,14.83,-1.6,-36.806,-11.959,121.0
709.6,14.81,-1.6,-37.377,-12.144,124.0
709.3,14.79,-1.6,-37.947,-12.33,127.0
709.0,14.77,-1.6,-38.613,-12.546,130.1
708.8,14.75,-1.6,-38.955,-13.413,133.1
708.5,14.73,-1.7,-39.523,-13.609,136.1
708.3,14.71,-1.7,-40.185,-13.837,139.1
708.0,14.68,-1.7,-40.468,-13.934,142.1
707.8,14.66,-1.7,-40.563,-13.967,145.1
707.5,14.64,-1.7,-40.501,-14.741,148.1
707.3,14.62,-1.8,-40.689,-14.809,151.2
707.0,14.6,-1.8,-40.877,-14.878,154.2
706.8,14.58,-1.8,-40.971,-14.912,157.2
706.5,14.56,-1.8,-41.159,-14.98,160.2
706.3,14.53,-1.8,-41.346,-15.049,163.2
706.0,14.51,-1.9,-41.534,-15.117,166.2
705.8,14.47,-1.9,-41.628,-15.151,169.2
705.5,14.44,-1.9,-41.816,-15.22,172.2
705.3,14.41,-2.0,-41.731,-16.019,175.3
705.0,14.37,-2.0,-41.918,-16.091,178.3
704.7,14.34,-2.0,-42.011,-16.127,181.3
704.4,14.3,-2.0,-42.198,-16.198,184.3
704.0,14.27,-2.0,-42.385,-16.27,188.3
703.7,14.23,-2.0,-42.571,-16.342,192.7
703.4,14.2,-2.0,-42.665,-16.377,197.1
703.1,14.17,-2.1,-42.851,-16.449,201.4
702.7,14.13,-2.1,-43.038,-16.521,205.8
702.4,14.1,-2.1,-42.836,-17.307,210.2
702.0,14.06,-2.1,-43.225,-16.592,214.5
701.6,14.03,-2.1,-43.225,-16.592,218.9
701.3,13.99,-2.1,-43.318,-16.628,223.3
700.9,13.96,-2.1,-43.411,-16.664,227.6
700.5,13.93,-2.1,-43.505,-16.7,232.0
700.2,13.9,-2.1,-43.505,-16.7,236.3
699.8,13.87,-2.1,-43.598,-16.736,240.7
699.5,13.84,-2.1,-43.692,-16.772,245.1
699.1,13.81,-2.2,-43.785,-16.807,249.4
698.7,13.78,-2.2,-43.785,-16.807,253.8
698.4,13.75,-2.2,-43.878,-16.843,258.2
698.0,13.72,-2.2,-43.972,-16.879,262.5
697.6,13.69,-2.3,-44.065,-16.915,266.9
697.3,13.66,-2.3,-44.065,-16.915,271.3
696.9,13.63,-2.3,-44.158,-16.951,275.6
696.6,13.6,-2.3,-44.252,-16.987,280.0
696.2,13.57,-2.4,-44.345,-17.022,284.3
695.8,13.54,-2.4,-44.345,-17.022,288.7
695.5,13.51,-2.4,-44.438,-17.058,293.1
695.1,13.48,-2.5,-44.438,-17.058,297.4
694.8,13.45,-2.5,-44.252,-16.987,301.8
694.4,13.42,-2.5,-44.065,-16.915,306.2
694.1,13.38,-2.6,-43.878,-16.843,310.5
693.7,13.35,-2.6,-43.692,-16.772,314.9
693.4,13.32,-2.6,-43.505,-16.7,318.9
693.0,13.29,-2.7,-43.318,-16.628,322.8
692.7,13.26,-2.7,-43.131,-16.557,326.8
692.4,13.23,-2.7,-42.945,-16.485,330.7
692.1,13.2,-2.8,-42.758,-16.413,334.6
691.7,13.17,-2.8,-42.571,-16.342,338.6
691.4,13.14,-2.8,-42.385,-16.27,342.5
691.1,13.11,-2.9,-42.198,-16.198,346.4
690.8,13.08,-2.9,-42.011,-16.127,350.3
690.4,13.05,-2.9,-41.824,-16.055,354.3
690.1,13.01,-3.0,-41.638,-15.983,358.2
689.8,12.98,-3.0,-41.451,-15.912,362.1
689.5,12.94,-3.0,-41.264,-15.84,366.0
689.1,12.9,-3.1,-41.078,-15.768,370.0
688.8,12.85,-3.1,-40.797,-15.661,373.9
688.5,12.81,-3.2,-40.611,-15.589,377.8
688.2,12.76,-3.2,-40.517,-15.553,381.7
687.9,12.72,-3.3,-40.424,-15.517,385.7
687.5,12.67,-3.3,-40.237,-15.446,389.6
687.2,12.63,-3.4,-40.144,-15.41,393.5
686.9,12.58,-3.4,-40.051,-15.374,397.4
686.6,12.54,-3.4,-39.864,-15.302,401.4
686.3,12.5,-3.5,-39.771,-15.266,405.3
685.9,12.45,-3.5,-39.677,-15.231,409.2
685.6,12.41,-3.5,-39.49,-15.159,413.2
685.3,12.36,-3.5,-39.397,-15.123,417.1
685.0,12.32,-3.5,-39.304,-15.087,421.0
684.6,12.27,-3.5,-39.117,-15.016,424.9
684.3,12.23,-3.5,-39.024,-14.98,428.9
684.0,12.2,-3.5,-38.93,-14.944,432.8
683.6,12.16,-3.5,-38.837,-14.908,437.1
683.3,12.12,-3.5,-38.65,-14.836,441.5
682.9,12.08,-3.5,-38.557,-14.801,445.9
682.6,12.05,-3.5,-38.464,-14.765,450.3
682.2,12.01,-3.5,-38.277,-14.693,454.6
681.9,11.97,-3.5,-38.183,-14.657,459.0
681.5,11.93,-3.5,-38.09,-14.621,463.4
681.2,11.9,-3.5,-37.997,-14.586,467.8
680.8,11.86,-3.5,-37.997,-14.586,472.2
680.4,11.82,-3.5,-37.903,-14.55,476.6
680.1,11.78,-3.5,-37.903,-14.55,481.0
679.7,11.75,-3.6,-37.81,-14.514,485.4
679.4,11.71,-3.6,-37.551,-15.172,489.8
679.0,11.67,-3.6,-37.458,-15.134,494.2
678.7,11.63,-3.6,-37.458,-15.134,498.6
678.3,11.58,-3.6,-37.366,-15.097,503.0
677.9,11.54,-3.6,-37.366,-15.097,507.4
677.6,11.5,-3.7,-37.273,-15.059,511.8
677.2,11.45,-3.7,-37.273,-15.059,516.1
676.9,11.41,-3.7,-37.18,-15.022,520.5
676.5,11.37,-3.7,-37.18,-15.022,524.9
676.2,11.32,-3.7,-36.82,-15.629,529.3
675.8,11.28,-3.7,-36.82,-15.629,533.7
675.5,11.24,-3.8,-36.728,-15.59,538.1
675.1,11.19,-3.8,-36.728,-15.59,542.5
674.7,11.15,-3.8,-36.636,-15.551,546.9
674.4,11.11,-3.8,-36.636,-15.551,551.3
674.0,11.06,-3.8,-36.544,-15.512,555.7
673.6,11.02,-3.8,-36.452,-15.473,560.1
673.2,10.97,-3.8,-36.268,-15.395,564.5
672.8,10.93,-3.8,-36.176,-15.356,569.7
672.4,10.87,-3.8,-35.811,-15.944,575.3
672.0,10.82,-3.9,-35.72,-15.903,580.9
671.6,10.77,-3.9,-35.628,-15.863,586.4
671.1,10.72,-3.9,-35.446,-15.781,592.0
670.7,10.67,-3.9,-35.354,-15.741,597.6
670.2,10.61,-3.9,-35.263,-15.7,603.1
669.8,10.56,-3.9,-35.172,-15.659,608.7
669.3,10.51,-3.9,-35.08,-15.619,614.3
668.9,10.46,-3.9,-34.897,-15.537,619.8
668.4,10.41,-3.9,-34.806,-15.497,625.4
668.0,10.35,-3.9,-34.715,-15.456,630.9
667.5,10.3,-3.9,-34.623,-15.415,636.5
667.1,10.25,-4.0,-34.258,-15.975,642.1
666.6,10.2,-4.0,-34.077,-15.89,647.6
666.2,10.15,-4.0,-33.987,-15.848,653.2
665.7,10.09,-4.0,-33.896,-15.806,658.8
665.3,10.04,-4.0,-33.805,-15.764,664.3
664.9,9.98,-4.0,-33.715,-15.721,669.9
664.4,9.92,-4.0,-33.715,-15.721,675.5
664.0,9.87,-4.0,-33.715,-15.721,681.0
663.5,9.81,-4.0,-33.435,-16.307,686.6
663.1,9.75,-4.0,-33.435,-16.307,692.1
662.6,9.7,-4.0,-33.435,-16.307,697.7
662.2,9.64,-4.1,-33.435,-16.307,703.3
661.7,9.59,-4.1,-33.435,-16.307,708.8
661.3,9.53,-4.1,-33.345,-16.264,714.4
660.8,9.47,-4.1,-33.056,-16.843,720.0
660.3,9.42,-4.1,-33.056,-16.843,725.5
659.8,9.36,-4.1,-33.056,-16.843,731.1
659.3,9.31,-4.1,-33.056,-16.843,738.0
658.8,9.25,-4.1,-33.056,-16.843,745.4
658.3,9.2,-4.1,-33.056,-16.843,752.8
657.7,9.15,-4.1,-32.757,-17.417,760.2
657.1,9.1,-4.1,-32.757,-17.417,767.5
656.5,9.06,-4.1,-32.757,-17.417,774.9
655.9,9.01,-4.1,-32.757,-17.417,782.3
655.3,8.96,-4.1,-32.757,-17.417,789.7
654.7,8.92,-4.0,-32.669,-17.37,797.1
654.2,8.87,-4.0,-32.361,-17.938,804.4
653.6,8.82,-4.0,-32.273,-17.889,811.8
653.0,8.78,-4.0,-32.186,-17.841,819.2
652.4,8.73,-4.0,-32.099,-17.793,826.6
651.8,8.68,-4.0,-31.783,-18.35,834.0
651.3,8.64,-3.9,-31.697,-18.3,841.3
650.7,8.59,-3.9,-31.61,-18.25,848.7
650.1,8.54,-3.9,-31.287,-18.799,856.1
649.5,8.5,-3.9,-31.201,-18.747,863.5
648.9,8.45,-3.9,-31.115,-18.696,870.8
648.4,8.38,-3.9,-31.115,-18.696,878.2
647.8,8.32,-3.9,-30.699,-19.183,885.6
647.2,8.26,-3.9,-30.615,-19.13,893.0
646.6,8.2,-3.9,-30.615,-19.13,900.4
646.0,8.13,-3.8,-30.53,-19.077,907.7
645.5,8.07,-3.8,-30.192,-19.607,915.1
644.9,8.01,-3.8,-30.108,-19.553,922.5
644.3,7.95,-3.8,-30.024,-19.498,929.9
643.7,7.89,-3.8,-29.68,-20.019,937.3
643.1,7.82,-3.8,-29.597,-19.963,944.6
642.5,7.76,-3.8,-29.514,-19.907,952.0
641.9,7.7,-3.8,-29.348,-19.795,959.9
641.3,7.64,-3.8,-28.834,-20.19,967.9
640.7,7.57,-3.8,-28.67,-20.075,975.9
640.1,7.51,-3.8,-28.506,-19.96,983.9
639.5,7.45,-3.8,-27.992,-20.337,991.9
638.9,7.36,-3.8,-27.83,-20.22,999.9
638.3,7.27,-3.8,-27.668,-20.102,1007.9
637.6,7.19,-3.8,-27.154,-20.462,1015.9
637.0,7.1,-3.8,-26.994,-20.341,1023.9
636.4,7.01,-3.9,-26.834,-20.221,1031.9
635.8,6.92,-3.9,-26.32,-20.563,1039.9
635.2,6.84,-3.9,-26.162,-20.44,1047.9
634.5,6.75,-4.0,-26.083,-20.378,1055.9
633.9,6.66,-4.0,-25.568,-20.705,1063.9
633.3,6.57,-4.1,-25.413,-20.579,1071.9
632.7,6.48,-4.1,-25.257,-20.453,1079.9
632.1,6.4,-4.1,-24.743,-20.762,1088.0
631.5,6.31,-4.2,-24.59,-20.633,1096.0
630.8,6.22,-4.2,-24.513,-20.569,1104.0
630.2,6.13,-4.3,-24.075,-20.928,1112.0
629.6,6.05,-4.3,-24.151,-20.994,1120.0
629.0,5.96,-4.3,-24.59,-20.633,1128.0
628.4,5.88,-4.4,-24.743,-20.762,1136.0
627.8,5.8,-4.4,-24.82,-20.826,1144.0
627.2,5.72,-4.4,-24.896,-20.891,1152.0
626.5,5.64,-4.5,-24.973,-20.955,1160.0
625.9,5.56,-4.5,-25.126,-21.083,1168.0
625.4,5.48,-4.5,-25.203,-21.148,1176.0
624.8,5.4,-4.6,-25.279,-21.212,1184.0
624.3,5.32,-4.6,-25.433,-21.341,1191.9
623.7,5.23,-4.6,-25.509,-21.405,1198.2
623.2,5.15,-4.6,-25.957,-21.019,1204.6
622.6,5.07,-4.6,-26.112,-21.145,1211.0
622.2,4.99,-4.7,-26.19,-21.208,1217.3
621.7,4.91,-4.7,-26.268,-21.271,1223.7
621.2,4.83,-4.7,-26.345,-21.334,1230.1
620.7,4.75,-4.7,-26.501,-21.46,1236.5
620.2,4.68,-4.7,-26.578,-21.523,1242.8
619.7,4.62,-4.7,-26.656,-21.586,1249.2
619.3,4.55,-4.8,-26.812,-21.712,1255.6
618.8,4.49,-4.8,-26.889,-21.774,1261.9
618.3,4.43,-4.8,-26.889,-21.774,1268.3
617.8,4.36,-4.8,-26.889,-21.774,1274.7
617.3,4.3,-4.8,-26.889,-21.774,1281.1
616.8,4.24,-4.8,-26.889,-21.774,1287.4
616.4,4.17,-4.8,-26.889,-21.774,1293.8
615.9,4.11,-4.8,-26.889,-21.774,1300.2
615.4,4.04,-4.9,-26.889,-21.774,1306.6
614.9,3.98,-4.9,-26.505,-22.24,1312.9
614.4,3.92,-4.9,-26.582,-22.305,1319.3
614.0,3.85,-4.9,-26.582,-22.305,1325.7
613.5,3.79,-4.9,-26.582,-22.305,1332.0
613.0,3.73,-5.0,-26.582,-22.305,1338.4
612.5,3.67,-5.0,-26.582,-22.305,1344.8
612.0,3.61,-5.0,-26.582,-22.305,1351.2
611.6,3.55,-5.0,-26.582,-22.305,1357.5
611.1,3.5,-5.0,-26.582,-22.305,1363.9
610.6,3.44,-5.0,-26.188,-22.765,1370.3
610.2,3.38,-5.1,-26.188,-22.765,1376.6
609.7,3.33,-5.1,-26.264,-22.831,1383.0
609.3,3.27,-5.1,-26.264,-22.831,1389.1
608.8,3.21,-5.1,-26.339,-22.896,1394.5
608.4,3.16,-5.1,-26.566,-23.093,1399.8
608.0,3.1,-5.1,-26.307,-23.687,1405.2
607.6,3.04,-5.2,-26.456,-23.821,1410.5
607.2,2.98,-5.2,-26.679,-24.022,1415.9
606.8,2.93,-5.2,-26.402,-24.62,1421.2
606.4,2.87,-5.2,-26.548,-24.757,1426.5
606.0,2.81,-5.2,-26.768,-24.961,1431.9
605.6,2.76,-5.2,-26.914,-25.098,1437.2
605.2,2.7,-5.2,-26.616,-25.702,1442.6
604.8,2.64,-5.2,-26.831,-25.911,1447.9
604.4,2.59,-5.2,-26.975,-26.05,1453.3
604.0,2.53,-5.3,-27.119,-26.189,1458.6
603.6,2.47,-5.3,-26.87,-26.87,1464.0
603.2,2.42,-5.3,-27.011,-27.011,1469.3
602.8,2.36,-5.3,-27.224,-27.224,1474.7
602.4,2.3,-5.3,-27.365,-27.365,1480.0
602.0,2.24,-5.3,-27.022,-27.982,1485.4
601.6,2.19,-5.3,-27.231,-28.198,1490.7
601.2,2.13,-5.3,-27.37,-28.342,1496.0
600.8,2.07,-5.3,-27.37,-28.342,1501.4
600.4,2.02,-5.3,-27.37,-28.342,1506.7
600.0,1.96,-5.3,-27.3,-28.27,1512.1
599.6,1.9,-5.3,-27.3,-28.27,1517.4
599.2,1.85,-5.3,-27.231,-28.198,1522.8
598.8,1.8,-5.3,-27.231,-28.198,1528.1
598.4,1.74,-5.3,-27.161,-28.126,1533.5
598.0,1.69,-5.3,-26.666,-28.596,1538.8
597.6,1.64,-5.3,-26.598,-28.523,1544.2
597.2,1.58,-5.3,-26.598,-28.523,1549.5
596.8,1.53,-5.3,-26.53,-28.45,1555.0
596.4,1.48,-5.3,-26.53,-28.45,1561.0
595.9,1.43,-5.3,-26.462,-28.377,1567.0
595.5,1.37,-5.3,-26.393,-28.303,1573.0
595.1,1.32,-5.3,-26.393,-28.303,1579.0
594.6,1.27,-5.3,-26.325,-28.23,1585.0
594.2,1.22,-5.3,-26.325,-28.23,1591.0
593.7,1.16,-5.3,-26.257,-28.157,1597.0
593.3,1.11,-5.3,-26.257,-28.157,1603.0
592.8,1.06,-5.3,-26.189,-28.084,1609.0
592.4,1.0,-5.3,-26.189,-28.084,1615.0
592.0,0.95,-5.4,-26.675,-27.623,1621.0
591.5,0.9,-5.4,-27.082,-27.082,1627.0
591.1,0.84,-5.4,-27.623,-26.675,1633.0
590.6,0.79,-5.4,-28.084,-26.189,1639.0
590.2,0.73,-5.5,-28.537,-25.695,1644.9
589.8,0.68,-5.5,-28.981,-25.193,1650.9
589.3,0.63,-5.5,-29.493,-24.747,1656.9
588.9,0.57,-5.5,-29.92,-24.229,1662.9
588.4,0.52,-5.5,-30.417,-23.765,1668.9
588.0,0.46,-5.6,-30.907,-23.29,1674.9
587.6,0.41,-5.6,-31.39,-22.806,1680.9
587.1,0.36,-5.6,-31.865,-22.312,1686.9
586.7,0.3,-5.6,-32.332,-21.809,1692.9
586.3,0.25,-5.7,-32.876,-21.35,1698.9
585.8,0.19,-5.7,-33.328,-20.826,1704.9
585.4,0.14,-5.7,-33.858,-20.344,1710.9
585.0,0.11,-5.7,-34.295,-19.8,1716.9
584.5,0.07,-5.7,-34.81,-19.295,1722.9
584.1,0.03,-5.7,-35.318,-18.779,1728.9
583.7,-0.01,-5.7,-35.818,-18.25,1734.9
583.3,-0.05,-5.8,-36.311,-17.71,1739.8
582.9,-0.08,-5.8,-36.311,-17.71,1744.3
582.6,-0.12,-5.8,-36.401,-17.754,1748.9
582.3,-0.16,-5.8,-36.401,-17.754,1753.5
581.9,-0.2,-5.8,-36.796,-17.158,1758.0
581.6,-0.23,-5.8,-36.796,-17.158,1762.6
581.3,-0.27,-5.8,-36.887,-17.201,1767.1
581.0,-0.31,-5.8,-36.887,-17.201,1771.7
580.6,-0.35,-5.8,-36.977,-17.243,1776.3
580.3,-0.39,-5.8,-37.273,-16.595,1780.8
580.0,-0.42,-5.8,-37.273,-16.595,1785.4
579.6,-0.46,-5.8,-37.364,-16.636,1790.0
579.3,-0.5,-5.9,-37.364,-16.636,1794.5
579.0,-0.53,-5.9,-37.455,-16.676,1799.1
578.6,-0.57,-5.9,-37.741,-16.02,1803.7
578.3,-0.61,-6.0,-37.833,-16.059,1808.2
578.0,-0.64,-6.0,-37.925,-16.098,1812.8
577.7,-0.68,-6.1,-37.925,-16.098,1817.3
577.3,-0.72,-6.1,-38.017,-16.137,1821.9
577.0,-0.75,-6.2,-38.293,-15.471,1826.5
576.7,-0.79,-6.2,-38.385,-15.509,1831.0
576.3,-0.83,-6.2,-38.293,-16.254,1835.6
576.0,-0.86,-6.3,-38.477,-16.333,1840.2
575.7,-0.9,-6.3,-38.369,-17.083,1844.7
575.4,-0.94,-6.4,-38.643,-17.205,1849.3
575.0,-0.97,-6.4,-38.826,-17.286,1853.9
574.7,-1.01,-6.5,-38.79,-18.088,1858.4
574.4,-1.04,-6.5,-38.971,-18.173,1863.0
574.1,-1.09,-6.5,-38.918,-18.981,1867.5
573.8,-1.13,-6.6,-39.098,-19.069,1872.1
573.5,-1.17,-6.6,-39.026,-19.885,1875.4
573.3,-1.21,-6.6,-39.204,-19.976,1878.4
573.1,-1.25,-6.6,-39.472,-20.112,1881.3
572.8,-1.29,-6.6,-39.379,-20.938,1884.3
572.6,-1.34,-6.7,-39.556,-21.032,1887.2
572.4,-1.38,-6.7,-39.445,-21.865,1890.2
572.2,-1.42,-6.7,-39.708,-22.01,1893.1
572.0,-1.46,-6.7,-39.883,-22.107,1896.1
571.8,-1.5,-6.7,-39.751,-22.95,1899.0
571.6,-1.54,-6.7,-40.01,-23.1,1902.0
571.4,-1.59,-6.7,-40.27,-23.25,1904.9
571.2,-1.63,-6.7,-40.03,-24.052,1907.9
570.9,-1.67,-6.7,-40.03,-24.052,1910.8
570.7,-1.71,-6.7,-39.944,-24.001,1913.8
570.5,-1.73,-6.7,-39.944,-24.001,1916.7
570.3,-1.74,-6.7,-39.944,-24.001,1919.7
570.1,-1.76,-6.6,-39.944,-24.001,1922.6
569.9,-1.77,-6.6,-39.434,-24.641,1925.6
569.7,-1.79,-6.6,-39.434,-24.641,1928.5
569.5,-1.8,-6.6,-39.434,-24.641,1931.5
569.3,-1.81,-6.6,-39.434,-24.641,1934.4
569.0,-1.83,-6.6,-39.349,-24.588,1937.3
568.8,-1.84,-6.6,-39.349,-24.588,1940.3
568.6,-1.85,-6.6,-39.349,-24.588,1943.2
568.4,-1.87,-6.6,-39.349,-24.588,1946.2
568.2,-1.88,-6.7,-39.265,-24.535,1949.1
568.0,-1.9,-6.7,-38.83,-25.217,1952.1
567.8,-1.91,-6.7,-38.83,-25.217,1955.0
567.7,-1.92,-6.7,-38.83,-25.217,1958.0
567.5,-1.94,-6.7,-38.83,-25.217,1960.9
567.3,-1.95,-6.7,-38.747,-25.162,1962.0
567.2,-1.98,-6.7,-38.747,-25.162,1962.9
567.1,-2.02,-6.7,-39.265,-24.535,1964.2
567.0,-2.06,-7.0,-40.097,-23.15,1965.5
566.9,-2.1,-7.4,-40.582,-22.495,1966.8
566.8,-2.15,-8.0,-41.521,-21.156,1968.5
566.7,-2.13,-8.3,-42.064,-20.516,1969.9
566.6,-2.1,-8.7,-42.596,-19.863,1971.2
566.5,-2.06,-9.0,-42.754,-19.035,1972.5
566.4,-2.01,-9.4,-42.389,-18.873,1974.2
566.3,-1.93,-9.8,-41.932,-18.669,1975.2
566.2,-1.49,-10.7,-41.292,-18.384,1976.6
566.1,-1.46,-11.3,-41.566,-18.507,1977.7
566.0,-1.46,-11.4,-41.418,-19.314,1979.5
565.9,-1.46,-11.5,-41.749,-18.588,1981.3
565.8,-1.47,-11.5,-41.84,-18.629,1983.0
565.7,-1.47,-11.5,-41.84,-18.629,1983.9
565.6,-1.48,-11.5,-41.932,-18.669,1985.6
565.5,-1.48,-11.5,-41.932,-18.669,1986.4
565.4,-1.49,-11.5,-42.343,-17.974,1988.2
565.3,-1.5,-11.5,-42.343,-17.974,1989.9
565.2,-1.51,-11.5,-42.343,-17.974,1990.8
565.1,-1.52,-11.6,-42.435,-18.013,1992.5
565.0,-1.52,-11.6,-42.836,-17.307,1994.2
564.9,-1.53,-11.6,-42.836,-17.307,1995.1
564.8,-1.52,-11.6,-42.836,-17.307,1996.8
564.7,-1.51,-11.7,-43.225,-16.592,1998.5
564.6,-1.51,-11.7,-43.131,-16.557,1999.4
564.5,-1.5,-11.7,-43.038,-16.521,2001.1
564.4,-1.5,-11.7,-42.945,-16.485,2002.0
564.3,-1.49,-11.8,-42.851,-16.449,2003.7
564.2,-1.48,-11.8,-42.665,-16.377,2005.2
564.1,-1.48,-11.8,-42.571,-16.342,2006.7
564.0,-1.47,-11.9,-42.385,-16.27,2008.1
563.9,-1.48,-11.9,-42.291,-16.234,2009.5
563.8,-1.48,-12.0,-42.104,-16.162,2010.9
563.7,-1.49,-12.0,-42.011,-16.127,2012.3
563.6,-1.5,-12.1,-41.824,-16.055,2013.8
563.5,-1.51,-12.1,-41.918,-16.091,2015.2
563.4,-1.52,-12.2,-42.38,-15.425,2016.6
563.3,-1.52,-12.2,-42.568,-15.494,2018.0
563.2,-1.53,-12.3,-42.85,-15.596,2019.4
563.1,-1.55,-12.3,-43.038,-15.665,2020.8
563.0,-1.58,-12.4,-43.226,-15.733,2022.3
562.9,-1.61,-12.4,-43.414,-15.801,2023.7
562.8,-1.63,-12.4,-43.602,-15.87,2025.1
562.7,-1.66,-12.4,-43.79,-15.938,2026.7
562.6,-1.67,-12.4,-44.25,-15.237,2027.6
562.5,-1.7,-12.4,-44.439,-15.302,2029.5
562.4,-1.71,-12.4,-44.345,-15.269,2030.4
562.3,-1.74,-12.4,-44.156,-15.204,2032.3
562.2,-1.74,-12.4,-44.061,-15.171,2033.2
562.1,-1.75,-12.4,-43.872,-15.106,2035.1
562.0,-1.75,-12.4,-43.778,-15.074,2036.0
561.9,-1.76,-12.4,-43.588,-15.009,2037.8
561.8,-1.76,-12.4,-43.494,-14.976,2038.8
561.7,-1.77,-12.4,-43.305,-14.911,2040.6
561.6,-1.78,-12.4,-43.21,-14.878,2042.5
561.5,-1.78,-12.4,-43.116,-14.846,2043.4
561.4,-1.79,-12.4,-42.927,-14.781,2045.3
561.3,-1.79,-12.5,-43.083,-13.998,2046.2
561.2,-1.8,-12.5,-42.893,-13.937,2048.1
561.1,-1.81,-12.5,-42.607,-13.844,2049.0
561.0,-1.84,-12.5,-41.886,-14.423,2050.9
560.9,-1.85,-12.5,-41.697,-14.358,2051.8
560.8,-1.87,-12.6,-41.225,-14.195,2053.7
560.7,-1.88,-12.6,-40.941,-14.097,2054.8
560.6,-1.9,-12.6,-40.752,-14.032,2055.9
560.5,-1.92,-12.6,-39.937,-14.536,2058.0
560.4,-1.93,-12.6,-39.749,-14.467,2059.0
560.3,-1.94,-12.6,-39.467,-14.365,2060.1
560.2,-1.97,-12.6,-38.997,-14.194,2062.2
560.1,-1.98,-12.6,-38.557,-14.801,2063.3
560.0,-1.99,-12.6,-38.277,-14.693,2064.3
559.9,-2.02,-12.6,-37.81,-14.514,2066.5
559.8,-2.04,-12.6,-37.717,-14.478,2067.5
559.7,-2.05,-12.6,-37.903,-14.55,2068.6
559.6,-2.08,-12.6,-38.183,-14.657,2070.7
559.5,-2.09,-12.6,-38.527,-14.023,2071.8
559.4,-2.12,-12.6,-38.809,-14.125,2073.9
559.3,-2.13,-12.6,-38.903,-14.16,2074.9
559.2,-2.15,-12.6,-38.997,-14.194,2076.0
559.1,-2.17,-12.6,-39.279,-14.296,2078.1
559.0,-2.19,-12.6,-39.712,-13.674,2079.2
558.9,-2.2,-12.6,-39.806,-13.706,2080.2
558.8,-2.22,-12.6,-40.09,-13.804,2082.4
558.7,-2.24,-12.6,-40.185,-13.837,2083.4
558.6,-2.25,-12.6,-40.374,-13.902,2084.5
558.5,-2.27,-12.6,-40.8,-13.257,2086.6
558.4,-2.28,-12.6,-40.991,-13.319,2087.5
558.3,-2.31,-12.6,-41.276,-13.411,2089.1
558.2,-2.33,-12.6,-41.466,-13.473,2090.8
558.1,-2.34,-12.6,-41.466,-13.473,2091.6
558.0,-2.37,-12.7,-41.371,-13.442,2093.2
557.9,-2.38,-12.7,-41.181,-13.38,2094.8
557.8,-2.38,-12.7,-41.181,-13.38,2095.7
557.7,-2.38,-12.7,-41.312,-12.63,2097.3
557.6,-2.38,-12.7,-41.121,-12.572,2098.9
557.5,-2.37,-12.8,-41.025,-12.543,2100.6
557.4,-2.37,-12.8,-40.93,-12.514,2101.4
557.3,-2.37,-12.8,-40.834,-12.484,2103.0
557.2,-2.37,-12.8,-40.739,-12.455,2104.7
557.1,-2.36,-12.9,-40.643,-12.426,2106.3
557.0,-2.36,-12.9,-40.547,-12.397,2107.1
556.9,-2.36,-13.0,-40.452,-12.367,2108.7
556.8,-2.36,-13.0,-40.547,-12.397,2109.6
556.6,-2.36,-13.1,-40.834,-12.484,2112.7
556.5,-2.36,-13.1,-41.025,-12.543,2114.7
556.4,-2.36,-13.1,-41.43,-11.88,2116.6
556.2,-2.36,-13.1,-41.527,-11.908,2118.6
556.1,-2.36,-13.2,-41.719,-11.963,2120.5
556.0,-2.36,-13.2,-41.911,-12.018,2122.5
555.8,-2.36,-13.2,-42.103,-12.073,2124.5
555.7,-2.35,-13.3,-42.199,-12.1,2126.4
555.6,-2.35,-13.3,-42.597,-11.414,2128.4
555.4,-2.35,-13.3,-42.791,-11.466,2130.3
555.3,-2.37,-13.3,-42.984,-11.517,2132.3
555.1,-2.41,-13.3,-43.177,-11.569,2134.2
555.0,-2.44,-13.3,-43.37,-11.621,2136.2
554.9,-2.48,-13.3,-43.467,-11.647,2138.2
554.7,-2.51,-13.3,-43.857,-10.935,2140.1
554.6,-2.55,-13.3,-44.051,-10.983,2142.1
554.5,-2.58,-13.3,-44.148,-11.007,2144.0
554.3,-2.62,-13.2,-44.245,-11.032,2146.0
554.2,-2.65,-13.2,-44.245,-11.032,2148.0
554.1,-2.69,-13.2,-44.245,-11.032,2149.9
553.9,-2.72,-13.2,-44.245,-11.032,2151.9
553.8,-2.76,-13.2,-44.245,-11.032,2153.8
553.6,-2.79,-13.2,-44.245,-11.032,2155.8
553.5,-2.83,-13.2,-44.245,-11.032,2157.7
553.4,-2.87,-13.2,-44.245,-11.032,2159.7
553.2,-2.9,-13.2,-44.245,-11.032,2161.7
